# The bandpass is included by SGJY in MPE on 2019-05-20.
# Wavelength RSR
1.44900 0.0041
1.44950 0.0042
1.45000 0.0035
1.45050 0.0022
1.45100 0.0028
1.45150 0.0049
1.45200 0.0045
1.45250 0.0053
1.45300 0.0043
1.45350 0.006
1.45400 0.0063
1.45450 0.0061
1.45500 0.0062
1.45550 0.005
1.45600 0.0072
1.45650 0.0077
1.45700 0.0075
1.45750 0.0077
1.45800 0.0084
1.45850 0.0091
1.45900 0.0096
1.45950 0.01
1.46000 0.0099
1.46050 0.0082
1.46100 0.0109
1.46150 0.0106
1.46200 0.0123
1.46250 0.0127
1.46300 0.0103
1.46350 0.0122
1.46400 0.0141
1.46450 0.0157
1.46500 0.0132
1.46550 0.0138
1.46600 0.0137
1.46650 0.0137
1.46700 0.0132
1.46750 0.0188
1.46800 0.0181
1.46850 0.0214
1.46900 0.0221
1.46950 0.016
1.47000 0.0235
1.47050 0.0186
1.47100 0.0164
1.47150 0.0264
1.47200 0.0276
1.47250 0.0176
1.47300 0.0303
1.47350 0.0311
1.47400 0.0322
1.47450 0.0375
1.47500 0.0395
1.47550 0.0383
1.47600 0.032
1.47650 0.0438
1.47700 0.0351
1.47750 0.0463
1.47800 0.0342
1.47850 0.0525
1.47900 0.0515
1.47950 0.0419
1.48000 0.0547
1.48050 0.0421
1.48100 0.0636
1.48150 0.0594
1.48200 0.0557
1.48250 0.0713
1.48300 0.0729
1.48350 0.0773
1.48400 0.0803
1.48450 0.0678
1.48500 0.0867
1.48550 0.0839
1.48600 0.0899
1.48650 0.0807
1.48700 0.0925
1.48750 0.0975
1.48800 0.0927
1.48850 0.1085
1.48900 0.1138
1.48950 0.109
1.49000 0.1213
1.49050 0.1275
1.49100 0.1303
1.49150 0.1059
1.49200 0.1325
1.49250 0.1379
1.49300 0.1398
1.49350 0.1481
1.49400 0.1476
1.49450 0.1535
1.49500 0.1473
1.49550 0.1585
1.49600 0.1619
1.49650 0.1504
1.49700 0.173
1.49750 0.1734
1.49800 0.1689
1.49850 0.1798
1.49900 0.1819
1.49950 0.1853
1.50000 0.1897
1.50050 0.1932
1.50100 0.1959
1.50150 0.1981
1.50200 0.196
1.50250 0.2011
1.50300 0.2011
1.50350 0.2015
1.50400 0.1925
1.50450 0.2035
1.50500 0.2092
1.50550 0.2143
1.50600 0.2155
1.50650 0.2183
1.50700 0.2189
1.50750 0.2198
1.50800 0.2217
1.50850 0.2151
1.50900 0.2137
1.50950 0.2258
1.51000 0.2262
1.51050 0.2269
1.51100 0.2265
1.51150 0.229
1.51200 0.2305
1.51250 0.2279
1.51300 0.2291
1.51350 0.2306
1.51400 0.2299
1.51450 0.2334
1.51500 0.2327
1.51550 0.2344
1.51600 0.2347
1.51650 0.2339
1.51700 0.2346
1.51750 0.2331
1.51800 0.2367
1.51850 0.2361
1.51900 0.2346
1.51950 0.2367
1.52000 0.2377
1.52050 0.2369
1.52100 0.2388
1.52150 0.2388
1.52200 0.2382
1.52250 0.2395
1.52300 0.2397
1.52350 0.2392
1.52400 0.2401
1.52450 0.2385
1.52500 0.2398
1.52550 0.24
1.52600 0.24
1.52650 0.24
1.52700 0.2405
1.52750 0.24
1.52800 0.2411
1.52850 0.2412
1.52900 0.2415
1.52950 0.2413
1.53000 0.2415
1.53050 0.2417
1.53100 0.242
1.53150 0.2413
1.53200 0.2421
1.53250 0.242
1.53300 0.2419
1.53350 0.2417
1.53400 0.2414
1.53450 0.2416
1.53500 0.2412
1.53550 0.2418
1.53600 0.2422
1.53650 0.2427
1.53700 0.2433
1.53750 0.2441
1.53800 0.2443
1.53850 0.244
1.53900 0.2439
1.53950 0.2439
1.54000 0.2437
1.54050 0.244
1.54100 0.2446
1.54150 0.2447
1.54200 0.2447
1.54250 0.2452
1.54300 0.2456
1.54350 0.2462
1.54400 0.2466
1.54450 0.2466
1.54500 0.247
1.54550 0.2473
1.54600 0.2475
1.54650 0.2478
1.54700 0.2481
1.54750 0.2483
1.54800 0.2485
1.54850 0.2487
1.54900 0.2489
1.54950 0.2491
1.55000 0.2494
1.55050 0.2496
1.55100 0.2497
1.55150 0.25
1.55200 0.2499
1.55250 0.2504
1.55300 0.2506
1.55350 0.2508
1.55400 0.251
1.55450 0.2512
1.55500 0.2514
1.55550 0.2516
1.55600 0.2518
1.55650 0.252
1.55700 0.2522
1.55750 0.2524
1.55800 0.2526
1.55850 0.2528
1.55900 0.253
1.55950 0.2532
1.56000 0.2534
1.56050 0.2536
1.56100 0.2537
1.56150 0.2539
1.56200 0.2541
1.56250 0.2542
1.56300 0.2545
1.56350 0.2546
1.56400 0.2548
1.56450 0.2549
1.56500 0.2552
1.56550 0.2553
1.56600 0.2554
1.56650 0.2556
1.56700 0.2556
1.56750 0.2556
1.56800 0.2552
1.56850 0.2545
1.56900 0.2531
1.56950 0.2511
1.57000 0.2486
1.57050 0.246
1.57100 0.2439
1.57150 0.2418
1.57200 0.2405
1.57250 0.2421
1.57300 0.2411
1.57350 0.2439
1.57400 0.2448
1.57450 0.2493
1.57500 0.2545
1.57550 0.2565
1.57600 0.2521
1.57650 0.2481
1.57700 0.2461
1.57750 0.2476
1.57800 0.249
1.57850 0.2501
1.57900 0.2486
1.57950 0.2476
1.58000 0.2472
1.58050 0.2495
1.58100 0.2507
1.58150 0.2511
1.58200 0.2533
1.58250 0.2546
1.58300 0.2549
1.58350 0.2564
1.58400 0.2572
1.58450 0.2577
1.58500 0.2585
1.58550 0.2589
1.58600 0.2593
1.58650 0.2593
1.58700 0.2593
1.58750 0.2595
1.58800 0.2595
1.58850 0.2596
1.58900 0.2597
1.58950 0.2598
1.59000 0.2598
1.59050 0.2599
1.59100 0.2599
1.59150 0.2599
1.59200 0.26
1.59250 0.2599
1.59300 0.2601
1.59350 0.2601
1.59400 0.2602
1.59450 0.2601
1.59500 0.2602
1.59550 0.2603
1.59600 0.2603
1.59650 0.2603
1.59700 0.2603
1.59750 0.2601
1.59800 0.2598
1.59850 0.2591
1.59900 0.2578
1.59950 0.2559
1.60000 0.2537
1.60050 0.2512
1.60100 0.2486
1.60150 0.2468
1.60200 0.2458
1.60250 0.2434
1.60300 0.2452
1.60350 0.2457
1.60400 0.2468
1.60450 0.2518
1.60500 0.2549
1.60550 0.2589
1.60600 0.258
1.60650 0.2541
1.60700 0.2523
1.60750 0.2523
1.60800 0.2525
1.60850 0.2528
1.60900 0.2511
1.60950 0.2497
1.61000 0.249
1.61050 0.2511
1.61100 0.2522
1.61150 0.2524
1.61200 0.2552
1.61250 0.2564
1.61300 0.2575
1.61350 0.2595
1.61400 0.2607
1.61450 0.2619
1.61500 0.2625
1.61550 0.2628
1.61600 0.263
1.61650 0.2629
1.61700 0.2631
1.61750 0.2634
1.61800 0.2636
1.61850 0.264
1.61900 0.264
1.61950 0.2643
1.62000 0.2645
1.62050 0.2646
1.62100 0.2648
1.62150 0.2648
1.62200 0.265
1.62250 0.2651
1.62300 0.2652
1.62350 0.2653
1.62400 0.2651
1.62450 0.2656
1.62500 0.2657
1.62550 0.2656
1.62600 0.2652
1.62650 0.2657
1.62700 0.2657
1.62750 0.2657
1.62800 0.2654
1.62850 0.2655
1.62900 0.2659
1.62950 0.2658
1.63000 0.266
1.63050 0.2638
1.63100 0.2658
1.63150 0.2656
1.63200 0.2656
1.63250 0.2654
1.63300 0.2635
1.63350 0.2651
1.63400 0.2656
1.63450 0.2653
1.63500 0.2652
1.63550 0.2602
1.63600 0.2649
1.63650 0.2648
1.63700 0.265
1.63750 0.2615
1.63800 0.2626
1.63850 0.2641
1.63900 0.2635
1.63950 0.263
1.64000 0.2623
1.64050 0.2558
1.64100 0.2622
1.64150 0.2615
1.64200 0.2611
1.64250 0.2609
1.64300 0.248
1.64350 0.2603
1.64400 0.2605
1.64450 0.2609
1.64500 0.261
1.64550 0.2428
1.64600 0.2606
1.64650 0.2603
1.64700 0.2595
1.64750 0.2583
1.64800 0.2536
1.64850 0.2541
1.64900 0.2572
1.64950 0.2569
1.65000 0.2574
1.65050 0.2566
1.65100 0.2411
1.65150 0.2558
1.65200 0.2556
1.65250 0.2562
1.65300 0.256
1.65350 0.2516
1.65400 0.253
1.65450 0.2553
1.65500 0.2541
1.65550 0.254
1.65600 0.2538
1.65650 0.2468
1.65700 0.2533
1.65750 0.2534
1.65800 0.2531
1.65850 0.2527
1.65900 0.2524
1.65950 0.2493
1.66000 0.2516
1.66050 0.2518
1.66100 0.2514
1.66150 0.2507
1.66200 0.2504
1.66250 0.2485
1.66300 0.2502
1.66350 0.2496
1.66400 0.2497
1.66450 0.2495
1.66500 0.2486
1.66550 0.2221
1.66600 0.23
1.66650 0.2401
1.66700 0.2444
1.66750 0.2472
1.66800 0.2474
1.66850 0.2473
1.66900 0.2478
1.66950 0.2475
1.67000 0.2476
1.67050 0.247
1.67100 0.2471
1.67150 0.2459
1.67200 0.2472
1.67250 0.2471
1.67300 0.2471
1.67350 0.247
1.67400 0.2469
1.67450 0.2397
1.67500 0.2469
1.67550 0.2466
1.67600 0.247
1.67650 0.247
1.67700 0.2468
1.67750 0.2396
1.67800 0.2469
1.67850 0.2468
1.67900 0.2473
1.67950 0.2472
1.68000 0.2472
1.68050 0.2468
1.68100 0.2447
1.68150 0.2471
1.68200 0.2476
1.68250 0.2477
1.68300 0.2478
1.68350 0.248
1.68400 0.2376
1.68450 0.2481
1.68500 0.2481
1.68550 0.2483
1.68600 0.2486
1.68650 0.2486
1.68700 0.2479
1.68750 0.2458
1.68800 0.2489
1.68850 0.2494
1.68900 0.2489
1.68950 0.2493
1.69000 0.2496
1.69050 0.2449
1.69100 0.249
1.69150 0.2488
1.69200 0.2495
1.69250 0.2495
1.69300 0.2505
1.69350 0.2505
1.69400 0.2458
1.69450 0.2503
1.69500 0.2501
1.69550 0.2509
1.69600 0.2511
1.69650 0.2505
1.69700 0.2497
1.69750 0.2479
1.69800 0.2508
1.69850 0.2511
1.69900 0.2511
1.69950 0.2503
1.70000 0.2494
1.70050 0.2508
1.70100 0.2478
1.70150 0.2511
1.70200 0.2506
1.70250 0.2496
1.70300 0.25
1.70350 0.2489
1.70400 0.2503
1.70450 0.2498
1.70500 0.2498
1.70550 0.2478
1.70600 0.2496
1.70650 0.2486
1.70700 0.2483
1.70750 0.2477
1.70800 0.2471
1.70850 0.2444
1.70900 0.247
1.70950 0.2478
1.71000 0.2485
1.71050 0.2459
1.71100 0.2483
1.71150 0.2483
1.71200 0.248
1.71250 0.2474
1.71300 0.2476
1.71350 0.2468
1.71400 0.2446
1.71450 0.2425
1.71500 0.2467
1.71550 0.2459
1.71600 0.2426
1.71650 0.2457
1.71700 0.2449
1.71750 0.245
1.71800 0.245
1.71850 0.2446
1.71900 0.2441
1.71950 0.244
1.72000 0.2432
1.72050 0.2422
1.72100 0.2405
1.72150 0.2337
1.72200 0.2416
1.72250 0.2409
1.72300 0.2407
1.72350 0.233
1.72400 0.24
1.72450 0.2347
1.72500 0.2376
1.72550 0.2392
1.72600 0.2373
1.72650 0.2388
1.72700 0.237
1.72750 0.238
1.72800 0.2382
1.72850 0.2345
1.72900 0.2344
1.72950 0.2377
1.73000 0.2378
1.73050 0.2363
1.73100 0.2357
1.73150 0.2368
1.73200 0.2243
1.73250 0.2239
1.73300 0.2362
1.73350 0.2363
1.73400 0.2359
1.73450 0.2356
1.73500 0.2345
1.73550 0.2312
1.73600 0.2293
1.73650 0.2321
1.73700 0.2313
1.73750 0.235
1.73800 0.2337
1.73850 0.2338
1.73900 0.2343
1.73950 0.2329
1.74000 0.2291
1.74050 0.2334
1.74100 0.2294
1.74150 0.2236
1.74200 0.232
1.74250 0.2335
1.74300 0.233
1.74350 0.2331
1.74400 0.2327
1.74450 0.2176
1.74500 0.2324
1.74550 0.2325
1.74600 0.2315
1.74650 0.2248
1.74700 0.2088
1.74750 0.2216
1.74800 0.2314
1.74850 0.2314
1.74900 0.2306
1.74950 0.2305
1.75000 0.2301
1.75050 0.23
1.75100 0.2296
1.75150 0.2041
1.75200 0.2287
1.75250 0.2287
1.75300 0.2281
1.75350 0.2282
1.75400 0.2274
1.75450 0.2269
1.75500 0.2106
1.75550 0.2235
1.75600 0.2256
1.75650 0.2226
1.75700 0.215
1.75750 0.2008
1.75800 0.2229
1.75850 0.2224
1.75900 0.2218
1.75950 0.2211
1.76000 0.2199
1.76050 0.219
1.76100 0.2018
1.76150 0.2173
1.76200 0.2162
1.76250 0.2041
1.76300 0.1997
1.76350 0.2125
1.76400 0.2119
1.76450 0.2105
1.76500 0.2092
1.76550 0.1943
1.76600 0.1297
1.76650 0.2039
1.76700 0.2036
1.76750 0.203
1.76800 0.2003
1.76850 0.1991
1.76900 0.197
1.76950 0.1939
1.77000 0.1914
1.77050 0.1866
1.77100 0.1874
1.77150 0.1905
1.77200 0.1877
1.77250 0.1858
1.77300 0.1843
1.77350 0.1829
1.77400 0.1598
1.77450 0.168
1.77500 0.1743
1.77550 0.1733
1.77600 0.1592
1.77650 0.1637
1.77700 0.168
1.77750 0.1675
1.77800 0.1633
1.77850 0.149
1.77900 0.1347
1.77950 0.159
1.78000 0.1571
1.78050 0.1552
1.78100 0.141
1.78150 0.1336
1.78200 0.1481
1.78250 0.1463
1.78300 0.1454
1.78350 0.1414
1.78400 0.1344
1.78450 0.1224
1.78500 0.1025
1.78550 0.1322
1.78600 0.1113
1.78650 0.1269
1.78700 0.1103
1.78750 0.1218
1.78800 0.1247
1.78850 0.1221
1.78900 0.1141
1.78950 0.1191
1.79000 0.1156
1.79050 0.1005
1.79100 0.0975
1.79150 0.0998
1.79200 0.0997
1.79250 0.0967
1.79300 0.101
1.79350 0.0749
1.79400 0.0745
1.79450 0.0959
1.79500 0.091
1.79550 0.0873
1.79600 0.0801
1.79650 0.0864
1.79700 0.0603
1.79750 0.0873
1.79800 0.0705
1.79850 0.0829
1.79900 0.0829
1.79950 0.0752
1.80000 0.0539
1.80050 0.0406
1.80100 0.039
1.80150 0.0522
1.80200 0.0587
1.80250 0.053
1.80300 0.0604
1.80350 0.0489
1.80400 0.051
1.80450 0.0582
1.80500 0.0635
1.80550 0.0513
1.80600 0.0365
1.80650 0.0222
1.80700 0.0526
1.80750 0.0319
1.80800 0.0516
1.80850 0.0489
1.80900 0.0343
1.80950 0.0455
1.81000 0.0467
1.81050 0.0217
1.81100 0.0163
1.81150 0.0379
1.81200 0.0267
1.81250 0.0318
1.81300 0.0118
1.81350 0.0312
1.81400 0.0392
1.81450 0.0386
1.81500 0.0225
1.81550 0.0107
1.81600 0.0229
1.81650 0.0242
1.81700 0.0191
1.81750 0.0305
1.81800 0.0308
1.81850 0.0086
1.81900 0.0236
1.81950 0.0257
1.82000 0.0134
