# The bandpass is included by SGJY in MPE on 2019-05-20.
# Wavelength RSR
1.96050 0.0044
1.96100 0.0033
1.96150 0.0041
1.96200 0.0039
1.96250 0.0047
1.96300 0.0042
1.96350 0.0034
1.96400 0.0032
1.96450 0.0038
1.96500 0.0053
1.96550 0.0046
1.96600 0.0035
1.96650 0.0047
1.96700 0.0061
1.96750 0.0052
1.96800 0.004
1.96850 0.0061
1.96900 0.0065
1.96950 0.0053
1.97000 0.006
1.97050 0.0073
1.97100 0.0059
1.97150 0.0053
1.97200 0.0072
1.97250 0.0071
1.97300 0.007
1.97350 0.0083
1.97400 0.0073
1.97450 0.0077
1.97500 0.009
1.97550 0.0086
1.97600 0.0084
1.97650 0.0096
1.97700 0.0094
1.97750 0.0096
1.97800 0.01
1.97850 0.01
1.97900 0.0106
1.97950 0.0102
1.98000 0.0083
1.98050 0.0092
1.98100 0.0114
1.98150 0.0118
1.98200 0.012
1.98250 0.0122
1.98300 0.0118
1.98350 0.0128
1.98400 0.0131
1.98450 0.0133
1.98500 0.0133
1.98550 0.0136
1.98600 0.0142
1.98650 0.0144
1.98700 0.0111
1.98750 0.0149
1.98800 0.0154
1.98850 0.0158
1.98900 0.0162
1.98950 0.0165
1.99000 0.0151
1.99050 0.0163
1.99100 0.0175
1.99150 0.0182
1.99200 0.0185
1.99250 0.0189
1.99300 0.0194
1.99350 0.0198
1.99400 0.0193
1.99450 0.0203
1.99500 0.0211
1.99550 0.0206
1.99600 0.0212
1.99650 0.0209
1.99700 0.0203
1.99750 0.0202
1.99800 0.0181
1.99850 0.0186
1.99900 0.0171
1.99950 0.0171
2.00000 0.0182
2.00050 0.0164
2.00100 0.0139
2.00150 0.0118
2.00200 0.0117
2.00250 0.0106
2.00300 0.0085
2.00350 0.0103
2.00400 0.0102
2.00450 0.0095
2.00500 0.0116
2.00550 0.0129
2.00600 0.0171
2.00650 0.0208
2.00700 0.0221
2.00750 0.0197
2.00800 0.0179
2.00850 0.0259
2.00900 0.0365
2.00950 0.0242
2.01000 0.0261
2.01050 0.0322
2.01100 0.023
2.01150 0.0178
2.01200 0.0279
2.01250 0.0331
2.01300 0.0229
2.01350 0.0197
2.01400 0.0373
2.01450 0.0325
2.01500 0.0191
2.01550 0.0427
2.01600 0.0386
2.01650 0.0246
2.01700 0.047
2.01750 0.0406
2.01800 0.0321
2.01850 0.0583
2.01900 0.0402
2.01950 0.0562
2.02000 0.063
2.02050 0.0468
2.02100 0.0741
2.02150 0.059
2.02200 0.0687
2.02250 0.0843
2.02300 0.0668
2.02350 0.089
2.02400 0.0739
2.02450 0.0922
2.02500 0.0918
2.02550 0.0963
2.02600 0.1022
2.02650 0.0989
2.02700 0.1098
2.02750 0.104
2.02800 0.1139
2.02850 0.1091
2.02900 0.1215
2.02950 0.1187
2.03000 0.1277
2.03050 0.1255
2.03100 0.131
2.03150 0.133
2.03200 0.136
2.03250 0.1376
2.03300 0.1393
2.03350 0.1411
2.03400 0.1447
2.03450 0.1468
2.03500 0.1492
2.03550 0.1512
2.03600 0.1529
2.03650 0.1549
2.03700 0.157
2.03750 0.1588
2.03800 0.161
2.03850 0.1623
2.03900 0.1645
2.03950 0.1648
2.04000 0.1622
2.04050 0.1624
2.04100 0.165
2.04150 0.166
2.04200 0.1684
2.04250 0.1738
2.04300 0.1761
2.04350 0.1782
2.04400 0.1749
2.04450 0.1764
2.04500 0.1802
2.04550 0.1825
2.04600 0.1827
2.04650 0.1808
2.04700 0.1799
2.04750 0.1767
2.04800 0.1723
2.04850 0.1731
2.04900 0.1707
2.04950 0.1575
2.05000 0.1562
2.05050 0.1521
2.05100 0.1352
2.05150 0.1353
2.05200 0.1382
2.05250 0.1382
2.05300 0.1579
2.05350 0.1636
2.05400 0.1547
2.05450 0.1351
2.05500 0.1201
2.05550 0.1168
2.05600 0.1491
2.05650 0.1622
2.05700 0.1606
2.05750 0.1303
2.05800 0.13
2.05850 0.1684
2.05900 0.183
2.05950 0.1728
2.06000 0.1711
2.06050 0.1994
2.06100 0.1602
2.06150 0.1659
2.06200 0.1884
2.06250 0.1627
2.06300 0.1222
2.06350 0.1682
2.06400 0.1814
2.06450 0.1312
2.06500 0.1457
2.06550 0.1867
2.06600 0.1551
2.06650 0.1363
2.06700 0.1863
2.06750 0.1747
2.06800 0.1387
2.06850 0.1887
2.06900 0.1827
2.06950 0.1475
2.07000 0.194
2.07050 0.183
2.07100 0.1591
2.07150 0.1979
2.07200 0.1758
2.07250 0.1814
2.07300 0.2038
2.07350 0.1756
2.07400 0.1964
2.07450 0.1962
2.07500 0.1761
2.07550 0.2044
2.07600 0.1958
2.07650 0.2025
2.07700 0.2046
2.07750 0.1967
2.07800 0.2082
2.07850 0.2053
2.07900 0.2111
2.07950 0.2134
2.08000 0.209
2.08050 0.2141
2.08100 0.2106
2.08150 0.2119
2.08200 0.2096
2.08250 0.21
2.08300 0.2102
2.08350 0.2096
2.08400 0.2093
2.08450 0.2107
2.08500 0.2089
2.08550 0.209
2.08600 0.213
2.08650 0.2144
2.08700 0.2106
2.08750 0.2155
2.08800 0.2161
2.08850 0.2114
2.08900 0.2172
2.08950 0.2162
2.09000 0.2113
2.09050 0.2186
2.09100 0.2162
2.09150 0.2167
2.09200 0.2194
2.09250 0.216
2.09300 0.2196
2.09350 0.219
2.09400 0.2151
2.09450 0.2205
2.09500 0.2195
2.09550 0.2206
2.09600 0.2205
2.09650 0.221
2.09700 0.2214
2.09750 0.2214
2.09800 0.2213
2.09850 0.2184
2.09900 0.2191
2.09950 0.2224
2.10000 0.2219
2.10050 0.2195
2.10100 0.2216
2.10150 0.2198
2.10200 0.2211
2.10250 0.222
2.10300 0.2221
2.10350 0.2231
2.10400 0.2232
2.10450 0.2227
2.10500 0.2221
2.10550 0.2229
2.10600 0.2231
2.10650 0.2227
2.10700 0.2228
2.10750 0.2222
2.10800 0.2226
2.10850 0.2227
2.10900 0.2219
2.10950 0.222
2.11000 0.2219
2.11050 0.2223
2.11100 0.222
2.11150 0.2231
2.11200 0.2211
2.11250 0.2216
2.11300 0.2242
2.11350 0.224
2.11400 0.2233
2.11450 0.2245
2.11500 0.2239
2.11550 0.2235
2.11600 0.2241
2.11650 0.2236
2.11700 0.2237
2.11750 0.2243
2.11800 0.2239
2.11850 0.2173
2.11900 0.2242
2.11950 0.2238
2.12000 0.2232
2.12050 0.2236
2.12100 0.2244
2.12150 0.2242
2.12200 0.2247
2.12250 0.2248
2.12300 0.2249
2.12350 0.225
2.12400 0.225
2.12450 0.2211
2.12500 0.2249
2.12550 0.2255
2.12600 0.2257
2.12650 0.2258
2.12700 0.2259
2.12750 0.2244
2.12800 0.2231
2.12850 0.2261
2.12900 0.2261
2.12950 0.2262
2.13000 0.2263
2.13050 0.2264
2.13100 0.2266
2.13150 0.2266
2.13200 0.2267
2.13250 0.2267
2.13300 0.2268
2.13350 0.2269
2.13400 0.227
2.13450 0.2271
2.13500 0.2271
2.13550 0.2271
2.13600 0.2258
2.13650 0.2273
2.13700 0.2274
2.13750 0.2275
2.13800 0.2276
2.13850 0.2276
2.13900 0.2276
2.13950 0.2277
2.14000 0.2278
2.14050 0.2279
2.14100 0.2279
2.14150 0.228
2.14200 0.2281
2.14250 0.2281
2.14300 0.2274
2.14350 0.228
2.14400 0.2283
2.14450 0.2282
2.14500 0.2284
2.14550 0.2285
2.14600 0.2284
2.14650 0.2285
2.14700 0.2284
2.14750 0.2281
2.14800 0.228
2.14850 0.2284
2.14900 0.2274
2.14950 0.2277
2.15000 0.2274
2.15050 0.2282
2.15100 0.2279
2.15150 0.2248
2.15200 0.2268
2.15250 0.2271
2.15300 0.226
2.15350 0.2275
2.15400 0.2283
2.15450 0.2284
2.15500 0.2274
2.15550 0.2274
2.15600 0.2292
2.15650 0.2285
2.15700 0.229
2.15750 0.2287
2.15800 0.2289
2.15850 0.2291
2.15900 0.2264
2.15950 0.2289
2.16000 0.2276
2.16050 0.2292
2.16100 0.2239
2.16150 0.2267
2.16200 0.229
2.16250 0.2279
2.16300 0.2287
2.16350 0.216
2.16400 0.2288
2.16450 0.2292
2.16500 0.2287
2.16550 0.2286
2.16600 0.2288
2.16650 0.2281
2.16700 0.2242
2.16750 0.2285
2.16800 0.2281
2.16850 0.2253
2.16900 0.2278
2.16950 0.229
2.17000 0.229
2.17050 0.2281
2.17100 0.2291
2.17150 0.2291
2.17200 0.229
2.17250 0.2213
2.17300 0.2259
2.17350 0.2289
2.17400 0.2282
2.17450 0.2248
2.17500 0.2277
2.17550 0.2283
2.17600 0.2277
2.17650 0.227
2.17700 0.2288
2.17750 0.2288
2.17800 0.2279
2.17850 0.2162
2.17900 0.2278
2.17950 0.2258
2.18000 0.2285
2.18050 0.2285
2.18100 0.2285
2.18150 0.2285
2.18200 0.2285
2.18250 0.2281
2.18300 0.2268
2.18350 0.2199
2.18400 0.2216
2.18450 0.2264
2.18500 0.2171
2.18550 0.2275
2.18600 0.2281
2.18650 0.2281
2.18700 0.2264
2.18750 0.2273
2.18800 0.2265
2.18850 0.2272
2.18900 0.228
2.18950 0.2251
2.19000 0.2277
2.19050 0.2238
2.19100 0.2278
2.19150 0.2279
2.19200 0.2279
2.19250 0.2278
2.19300 0.2278
2.19350 0.2278
2.19400 0.2278
2.19450 0.2249
2.19500 0.2203
2.19550 0.2276
2.19600 0.2277
2.19650 0.2268
2.19700 0.2276
2.19750 0.2269
2.19800 0.2258
2.19850 0.2209
2.19900 0.2235
2.19950 0.2155
2.20000 0.2067
2.20050 0.2025
2.20100 0.2249
2.20150 0.2229
2.20200 0.2208
2.20250 0.2206
2.20300 0.2231
2.20350 0.2262
2.20400 0.225
2.20450 0.2238
2.20500 0.2169
2.20550 0.2256
2.20600 0.2264
2.20650 0.2276
2.20700 0.2276
2.20750 0.2269
2.20800 0.2281
2.20850 0.2284
2.20900 0.2285
2.20950 0.2285
2.21000 0.2286
2.21050 0.2279
2.21100 0.2266
2.21150 0.2282
2.21200 0.2289
2.21250 0.229
2.21300 0.2291
2.21350 0.2292
2.21400 0.2289
2.21450 0.229
2.21500 0.2278
2.21550 0.2294
2.21600 0.2242
2.21650 0.2182
2.21700 0.2289
2.21750 0.2296
2.21800 0.2292
2.21850 0.229
2.21900 0.2301
2.21950 0.2303
2.22000 0.2301
2.22050 0.229
2.22100 0.2297
2.22150 0.2171
2.22200 0.2252
2.22250 0.2305
2.22300 0.2305
2.22350 0.2307
2.22400 0.2299
2.22450 0.2307
2.22500 0.2308
2.22550 0.231
2.22600 0.2302
2.22650 0.2246
2.22700 0.2267
2.22750 0.2301
2.22800 0.2313
2.22850 0.2315
2.22900 0.2318
2.22950 0.2325
2.23000 0.2328
2.23050 0.2322
2.23100 0.2316
2.23150 0.2233
2.23200 0.2313
2.23250 0.2214
2.23300 0.2316
2.23350 0.2294
2.23400 0.2331
2.23450 0.2327
2.23500 0.2332
2.23550 0.2341
2.23600 0.231
2.23650 0.227
2.23700 0.2334
2.23750 0.2278
2.23800 0.2283
2.23850 0.2352
2.23900 0.2358
2.23950 0.2348
2.24000 0.2355
2.24050 0.2308
2.24100 0.2339
2.24150 0.2266
2.24200 0.2369
2.24250 0.2342
2.24300 0.2338
2.24350 0.2346
2.24400 0.2261
2.24450 0.2347
2.24500 0.2376
2.24550 0.2373
2.24600 0.2283
2.24650 0.2318
2.24700 0.2262
2.24750 0.231
2.24800 0.2375
2.24850 0.2383
2.24900 0.2367
2.24950 0.2362
2.25000 0.236
2.25050 0.231
2.25100 0.2344
2.25150 0.2374
2.25200 0.2375
2.25250 0.2339
2.25300 0.2345
2.25350 0.2326
2.25400 0.2226
2.25450 0.2342
2.25500 0.2373
2.25550 0.2298
2.25600 0.2273
2.25650 0.2319
2.25700 0.2219
2.25750 0.2354
2.25800 0.2339
2.25850 0.2299
2.25900 0.2378
2.25950 0.2369
2.26000 0.2318
2.26050 0.2353
2.26100 0.2151
2.26150 0.2268
2.26200 0.2227
2.26250 0.222
2.26300 0.2389
2.26350 0.2277
2.26400 0.2324
2.26450 0.2293
2.26500 0.2249
2.26550 0.2369
2.26600 0.2373
2.26650 0.2373
2.26700 0.2348
2.26750 0.2299
2.26800 0.2285
2.26850 0.2134
2.26900 0.2212
2.26950 0.2343
2.27000 0.2339
2.27050 0.2148
2.27100 0.2349
2.27150 0.2285
2.27200 0.2298
2.27250 0.2111
2.27300 0.2335
2.27350 0.2283
2.27400 0.2343
2.27450 0.2325
2.27500 0.2263
2.27550 0.1951
2.27600 0.2072
2.27650 0.2148
2.27700 0.2221
2.27750 0.2277
2.27800 0.2276
2.27850 0.2297
2.27900 0.2302
2.27950 0.2307
2.28000 0.2302
2.28050 0.2185
2.28100 0.2126
2.28150 0.2247
2.28200 0.2267
2.28250 0.2201
2.28300 0.1837
2.28350 0.2267
2.28400 0.1929
2.28450 0.2253
2.28500 0.22
2.28550 0.2066
2.28600 0.2251
2.28650 0.222
2.28700 0.2214
2.28750 0.2207
2.28800 0.2224
2.28850 0.2205
2.28900 0.2212
2.28950 0.1939
2.29000 0.1853
2.29050 0.2172
2.29100 0.213
2.29150 0.2169
2.29200 0.2183
2.29250 0.1975
2.29300 0.2179
2.29350 0.2143
2.29400 0.205
2.29450 0.2145
2.29500 0.1955
2.29550 0.2077
2.29600 0.2014
2.29650 0.2112
2.29700 0.2148
2.29750 0.2159
2.29800 0.2077
2.29850 0.1854
2.29900 0.2005
2.29950 0.1991
2.30000 0.1964
2.30050 0.1969
2.30100 0.2005
2.30150 0.2118
2.30200 0.2068
2.30250 0.2052
2.30300 0.2088
2.30350 0.194
2.30400 0.1984
2.30450 0.1835
2.30500 0.2021
2.30550 0.1962
2.30600 0.2025
2.30650 0.1998
2.30700 0.2068
2.30750 0.1745
2.30800 0.2063
2.30850 0.2089
2.30900 0.2043
2.30950 0.2032
2.31000 0.2052
2.31050 0.2112
2.31100 0.2115
2.31150 0.2111
2.31200 0.2057
2.31250 0.2102
2.31300 0.2114
2.31350 0.2115
2.31400 0.2115
2.31450 0.2115
2.31500 0.2109
2.31550 0.2106
2.31600 0.1933
2.31650 0.1846
2.31700 0.1463
2.31750 0.1781
2.31800 0.176
2.31850 0.1806
2.31900 0.1999
2.31950 0.1956
2.32000 0.2003
2.32050 0.2045
2.32100 0.2025
2.32150 0.2062
2.32200 0.1967
2.32250 0.2012
2.32300 0.2059
2.32350 0.2111
2.32400 0.2064
2.32450 0.2134
2.32500 0.2124
2.32550 0.1953
2.32600 0.2146
2.32650 0.2052
2.32700 0.2151
2.32750 0.216
2.32800 0.217
2.32850 0.1772
2.32900 0.2106
2.32950 0.2109
2.33000 0.2184
2.33050 0.2185
2.33100 0.2096
2.33150 0.2103
2.33200 0.2083
2.33250 0.2142
2.33300 0.217
2.33350 0.2188
2.33400 0.2071
2.33450 0.2149
2.33500 0.2072
2.33550 0.2201
2.33600 0.2047
2.33650 0.2203
2.33700 0.2223
2.33750 0.2207
2.33800 0.2165
2.33850 0.2079
2.33900 0.2171
2.33950 0.2138
2.34000 0.1883
2.34050 0.2048
2.34100 0.2068
2.34150 0.2102
2.34200 0.2147
2.34250 0.2194
2.34300 0.2226
2.34350 0.2141
2.34400 0.2223
2.34450 0.2208
2.34500 0.2106
2.34550 0.214
2.34600 0.2193
2.34650 0.2115
2.34700 0.2172
2.34750 0.2053
2.34800 0.1979
2.34850 0.2066
2.34900 0.2216
2.34950 0.2185
2.35000 0.2184
2.35050 0.1936
2.35100 0.1808
2.35150 0.2162
2.35200 0.2107
2.35250 0.1866
2.35300 0.2207
2.35350 0.1892
2.35400 0.2247
2.35450 0.2168
2.35500 0.2139
2.35550 0.2188
2.35600 0.1652
2.35650 0.2169
2.35700 0.2168
2.35750 0.2151
2.35800 0.209
2.35850 0.1818
2.35900 0.1768
2.35950 0.2163
2.36000 0.2144
2.36050 0.2128
2.36100 0.2115
2.36150 0.1829
2.36200 0.2024
2.36250 0.2064
2.36300 0.2049
2.36350 0.202
2.36400 0.1818
2.36450 0.1801
2.36500 0.1962
2.36550 0.1952
2.36600 0.1899
2.36650 0.1875
2.36700 0.1855
2.36750 0.1522
2.36800 0.1788
2.36850 0.1771
2.36900 0.1637
2.36950 0.1767
2.37000 0.1516
2.37050 0.0935
2.37100 0.1262
2.37150 0.1171
2.37200 0.1441
2.37250 0.1421
2.37300 0.1493
2.37350 0.1503
2.37400 0.1551
2.37450 0.1512
2.37500 0.1457
2.37550 0.1469
2.37600 0.1445
2.37650 0.1302
2.37700 0.1256
2.37750 0.136
2.37800 0.1261
2.37850 0.1296
2.37900 0.134
2.37950 0.1306
2.38000 0.1184
2.38050 0.114
2.38100 0.1248
2.38150 0.1237
2.38200 0.1221
2.38250 0.1183
2.38300 0.1018
2.38350 0.0979
2.38400 0.0779
2.38450 0.1033
2.38500 0.1088
2.38550 0.1062
2.38600 0.0845
2.38650 0.0922
2.38700 0.1002
2.38750 0.0901
2.38800 0.0823
2.38850 0.0939
2.38900 0.0938
2.38950 0.0903
2.39000 0.0822
2.39050 0.0876
2.39100 0.0798
2.39150 0.0504
2.39200 0.0823
2.39250 0.0802
2.39300 0.0778
2.39350 0.075
2.39400 0.0753
2.39450 0.071
2.39500 0.0699
2.39550 0.0675
2.39600 0.0693
2.39650 0.0596
2.39700 0.0599
2.39750 0.0619
2.39800 0.062
2.39850 0.062
2.39900 0.0592
2.39950 0.058
2.40000 0.0577
2.40050 0.0495
2.40100 0.0557
2.40150 0.0547
2.40200 0.0523
2.40250 0.0518
2.40300 0.0504
2.40350 0.0495
2.40400 0.0428
2.40450 0.0402
2.40500 0.0462
2.40550 0.0435
2.40600 0.0423
2.40650 0.0428
2.40700 0.032
2.40750 0.0373
2.40800 0.0385
2.40850 0.0393
2.40900 0.0374
2.40950 0.036
2.41000 0.0285
2.41050 0.0351
2.41100 0.0347
2.41150 0.0326
2.41200 0.0313
2.41250 0.0318
2.41300 0.0313
2.41350 0.03
2.41400 0.028
2.41450 0.0241
2.41500 0.028
2.41550 0.0263
2.41600 0.0146
2.41650 0.0237
2.41700 0.0251
2.41750 0.0242
2.41800 0.0236
2.41850 0.0136
2.41900 0.0152
2.41950 0.0161
2.42000 0.0211
2.42050 0.0209
2.42100 0.0203
2.42150 0.0198
2.42200 0.018
2.42250 0.0186
2.42300 0.0181
2.42350 0.0177
2.42400 0.0135
2.42450 0.0164
2.42500 0.0157
2.42550 0.0156
2.42600 0.0151
2.42650 0.0117
2.42700 0.0145
2.42750 0.014
2.42800 0.0137
2.42850 0.0135
2.42900 0.013
2.42950 0.0126
2.43000 0.0122
2.43050 0.012
2.43100 0.0116
2.43150 0.0113
2.43200 0.011
2.43250 0.0106
2.43300 0.0099
2.43350 0.0081
2.43400 0.0097
2.43450 0.0091
2.43500 0.0074
